temp,CCO,HbO2,HHb,P_a,SaO2sup,t
38.92487900645453,-1.7428063450021118,-4.611929706412682,-7.575072465285289,52.39895705,0.99,0.0
38.92200356078547,-1.7413770108530957,-4.6045658219830665,-7.585404841667932,52.66390135,0.99,10.0
38.919191245117155,-1.7398050140282957,-4.5977709680278425,-7.595801506379748,51.94646,0.99,20.0
38.91646984509353,-1.7380387852841852,-4.592180590232647,-7.606004634943602,55.7018226,0.99,31.0
38.91386079658338,-1.7360555059987957,-4.5883220927397135,-7.615736346637387,52.61894834,0.99,41.0
38.91137687079146,-1.7338655234188023,-4.586573298165488,-7.62470803380895,52.70130602,0.99,51.0
38.90902053876858,-1.7315121641205369,-4.587137429889786,-7.632634072218174,50.582684,0.99,61.0
38.90678323429404,-1.7290668807531742,-4.5900363449151484,-7.639249253653692,52.80528933,0.99,71.0
38.90464565393746,-1.7266203433140082,-4.595121559395813,-7.644328262158903,51.07307705,0.99,82.0
38.90257913453515,-1.7242706745118246,-4.602100607492829,-7.647704759291916,52.70969128,0.99,92.0
38.90054804018465,-1.7221104500842666,-4.610574669900922,-7.649287358983813,54.655548,0.99,102.0
38.89851298388679,-1.7202142543775192,-4.620082439525879,-7.6490700404462135,53.10299333,0.99,112.0
38.896434614539146,-1.7186284563254215,-4.6301450058783935,-7.647135294326353,51.35337419,0.99,122.0
38.89427762868032,-1.7173644897269884,-4.640307086350385,-7.643649325623553,52.93302895,0.99,133.0
38.892014626488475,-1.7163963856579336,-4.650170991167814,-7.6388497077272275,52.48971115,0.99,143.0
38.889629428239935,-1.7156627226404586,-4.659421013874894,-7.633026799809632,51.63672583,0.99,153.0
38.88711950271643,-1.7150726093617126,-4.667837285685622,-7.626500893547834,52.705301,0.99,163.0
38.8844972315249,-1.7145148441651743,-4.675299394308796,-7.619597404477777,53.68452829,0.99,173.0
38.88178983750974,-1.7138690491487818,-4.681781145882675,-7.612622470084075,52.24627226,0.99,184.0
38.87903793148853,-1.7130174007866548,-4.687338616977494,-7.6058411001673605,50.87056111,0.99,194.0
38.876292765734895,-1.7118556019506108,-4.6920939759705345,-7.599459623706398,52.92367483,0.99,204.0
38.873612409341185,-1.710301951469877,-4.696217409138188,-7.593613678441205,54.82360828,0.99,214.0
38.87105716499474,-1.7083037185396022,-4.69990896928745,-7.588362450881107,52.67546689,0.99,225.0
38.86868461760794,-1.7058404474281983,-4.7033814866794215,-7.583689324289902,56.07249128,0.99,235.0
38.86654473694811,-1.7029242187513476,-4.706845072109101,-7.5795085729367635,52.86799346,0.99,245.0
38.86467544881562,-1.6995972034641784,-4.710493353885374,-7.5756773129021004,52.44316115,0.99,255.0
38.86309904658359,-1.6959270322930071,-4.7144914591055365,-7.572011612121834,51.13221782,0.99,265.0
38.86181974372517,-1.6920005876189208,-4.718965806556482,-7.568305440800378,53.25427715,0.99,276.0
38.8608225760759,-1.6879168550458905,-4.723995913429461,-7.564350947729574,51.84501396,0.99,286.0
38.86007375779182,-1.6837794771268049,-4.7296085539246295,-7.559958362521192,52.30019145,0.99,296.0
38.85952248447474,-1.6796896188501285,-4.735774735443759,-7.55497370571406,52.84783717,0.99,306.0
38.85910406747172,-1.675739652091738,-4.742410088858255,-7.549292537440076,52.9247404,0.99,316.0
38.85874418159495,-1.672007991481916,-4.749379351058863,-7.542868274354067,51.02463226,0.99,327.0
38.858363921058995,-1.6685552140488231,-4.7565055182632765,-7.535714171725877,52.50144805,0.99,337.0
38.857885291241494,-1.6654214401309022,-4.763583846276371,-7.52789883290246,58.22094702,0.99,347.0
38.857236721705604,-1.6626248875267504,-4.770400174042842,-7.519535934323676,52.68002451,0.99,357.0
38.85635817226419,-1.6601615228489583,-4.7767522093411205,-7.510769588095247,52.22382857,0.99,367.0
38.85520542103643,-1.6580057718261458,-4.782471677561102,-7.501757281528777,52.95153072,0.99,378.0
38.853753172541545,-1.656112267716358,-4.787444791206919,-7.492652556450317,52.57033026,0.99,388.0
38.85199670445634,-1.6544186043164222,-4.791628425473721,-7.4835895003546025,51.18635,0.99,398.0
38.84995188113448,-1.6528490321426683,-4.795059659194564,-7.474670761900697,52.1907129,0.99,408.0
38.847653494672215,-1.6513189985446106,-4.797856918586551,-7.465960265836433,53.14719871,0.99,418.0
38.845152040593455,-1.6497403672303317,-4.800211838287046,-7.457481179079117,52.47971887,0.99,429.0
38.84250918166037,-1.6480270410973483,-4.8023721190299495,-7.449219037057543,50.4247039,0.99,439.0
38.83979228404361,-1.6461005665796618,-4.804617000957776,-7.4411293315885665,52.45975194,0.99,449.0
38.837068509318115,-1.643895173494364,-4.807228231280827,-7.433148345465808,57.27878025,0.99,459.0
38.834399000406265,-1.6413616792045391,-4.810460263808523,-7.4252056458194735,52.53952395,0.99,469.0
38.83183370155538,-1.638469812833834,-4.8145136404302695,-7.417236454331525,55.13957451,0.99,480.0
38.8294072998433,-1.635208779445548,-4.819515009492754,-7.4091921298394725,52.61521442,0.99,490.0
38.82713667299192,-1.631586198059509,-4.825506172001666,-7.401047260628284,50.81619355,0.99,500.0
38.82502008527828,-1.627625796949114,-4.832443184199491,-7.392802371650458,51.24073084,0.99,510.0
38.82303820400493,-1.623364358930286,-4.840205178123805,-7.384481938762728,51.85428228,0.99,520.0
38.821156830022716,-1.6188483725212597,-4.848611414728719,-7.37612814117842,51.97072803,0.99,531.0
38.819331065152134,-1.6141307084075611,-4.857444271672678,-7.367791443403482,51.8765075,0.99,541.0
38.81751049450185,-1.6092674676831011,-4.866475404248966,-7.359519586122806,50.38200032,0.99,551.0
38.815644857921626,-1.6043149970368693,-4.87549215849967,-7.351346826164052,52.00688677,0.99,561.0
38.81368963398112,-1.5993269833669133,-4.8843214080218615,-7.343285256945808,53.27391911,0.99,571.0
38.811610969042036,-1.5943515571668576,-4.892848300522238,-7.335319730716572,51.2001,0.99,582.0
38.80938945384779,-1.5894284536335064,-4.901027920547801,-7.327407302843915,50.36921026,0.99,592.0
38.80702237340361,-1.5845864638236755,-4.908888572843457,-7.319481320615232,52.29934647,0.99,602.0
38.80452421814002,-1.5798415747063053,-4.916526221715012,-7.311459459445526,56.65028182,0.99,612.0
38.80192542605514,-1.575196252783795,-4.924090544554139,-7.303254358889808,52.67978462,0.99,622.0
38.79926950615908,-1.570640210489784,-4.9317640403721414,-7.294785155744086,51.02501538,0.99,633.0
38.796608854206745,-1.5661527189695623,-4.939736610551337,-7.285988177075327,52.39504904,0.99,643.0
38.79399969668183,-1.5617061845486804,-4.948178840379974,-7.276825286814518,56.29533691,0.99,653.0
38.791496676540646,-1.5572704200839629,-4.957217614714161,-7.26728878838701,52.55773077,0.99,663.0
38.78914761728465,-1.5528169232563018,-4.966917484777598,-7.257402296059741,52.22560801,0.99,673.0
38.786988968850004,-1.5483225498486857,-4.977270320472085,-7.247217545102861,52.55563846,0.99,684.0
38.785042353958566,-1.543772182793364,-4.9881944192371614,-7.2368076675529105,51.32517073,0.99,694.0
38.78331250752212,-1.5391602440812489,-4.999542737779332,-7.22625795723784,50.79429489,0.99,704.0
38.78178675011559,-1.5344910891548746,-5.0111185999966,-7.215655517021434,52.19431369,0.99,714.0
38.780435977696364,-1.529778429062848,-5.0226963216175085,-7.205079359606805,52.34564904,0.99,724.0
38.77921700151155,-1.5250439614302909,-5.034043755585757,-7.1945924705365485,52.0565283,0.99,735.0
38.77807594976645,-1.5203153948044306,-5.0449437945926014,-7.18423701511243,50.81468471,0.99,745.0
38.77695235755047,-1.5156240577969553,-5.055212293576625,-7.174033314261719,52.44263942,0.99,755.0
38.77578353046522,-1.5110023187697688,-5.064710550450643,-7.163982541504812,55.10758543,0.99,765.0
38.77450877186881,-1.5064811026434786,-5.073351250352394,-7.154072468287232,52.13164204,0.99,776.0
38.773073109907095,-1.502087839706196,-5.081097562542956,-7.14428514895109,55.11283366,0.99,786.0
38.771430240143296,-1.4978451557979455,-5.087955895455794,-7.134605247799861,52.50953949,0.99,796.0
38.769544500555476,-1.4937704755043812,-5.093963664780898,-7.125027747263893,51.79687405,0.99,806.0
38.76739180395809,-1.4898764801339688,-5.099174201509953,-7.115563982794143,50.41995031,0.99,816.0
38.76495955515415,-1.4861721159120909,-5.103641421039991,-7.1062452734025525,52.93558387,0.99,827.0
38.762245665929214,-1.48266367876101,-5.107406913128612,-7.097123805478327,51.66977627,0.99,837.0
38.75925684391162,-1.4793554747383604,-5.110491649585888,-7.088270820006683,51.51787669,0.99,847.0
38.75600636853832,-1.4762496762049866,-5.1128936546184685,-7.079772479969541,50.81589715,0.99,857.0
38.75251157916663,-1.4733452177288189,-5.1145919508097775,-7.071723999569911,51.91487102,0.99,867.0
38.748791289870354,-1.4706358361918213,-5.115556089326837,-7.0642226843832825,50.8987684,0.99,878.0
38.74486331819113,-1.46810759916437,-5.11575973303174,-7.0573604957530245,51.77969712,0.99,888.0
38.74074227832385,-1.46573644754284,-5.115196144228794,-7.051216676328722,51.63778,0.99,898.0
38.73643775114178,-1.4634863795190136,-5.113893056953446,-7.045850908340876,51.80205875,0.99,908.0
38.731952912211035,-1.4613089012952225,-5.111924325262208,-7.0412974366675085,50.13303281,0.99,919.0
38.727283679826506,-1.4591442439961495,-5.109416002167208,-7.0375605588080665,51.2399875,0.99,929.0
38.722418437093296,-1.4569245915878923,-5.1065451700105084,-7.034611841070943,56.45128917,0.99,939.0
38.71733837579185,-1.4545792156698625,-5.1035308757323685,-7.0323893469271805,51.87252174,0.99,949.0
38.71201848965167,-1.4520410436873818,-5.100617771366005,-7.0307990403263965,50.05670562,0.99,959.0
38.70642919602783,-1.4492538814057467,-5.098054292351928,-7.029718339828409,51.7714,0.99,970.0
38.700538483491385,-1.4461793271898509,-5.096068185399363,-7.0290015689469545,51.89950312,0.99,980.0
38.69431438152637,-1.4428023812021389,-5.094842724328871,-7.0284868388606325,50.75478675,0.99,990.0
38.687727457018774,-1.4391348773274395,-5.0944969027251386,-7.028003783443984,50.79035644,0.99,1000.0
38.68075299640428,-1.4352161447048712,-5.095072266280663,-7.02738157282651,51.24276411,0.99,1011.0
38.67337255807502,-1.4311106973243393,-5.096528002249613,-7.026456735332341,49.97811104,0.99,1021.0
38.66557467931079,-1.4269031699880583,-5.098744707426381,-7.025080462365848,49.99277835,0.99,1031.0
38.65735467222957,-1.4226910760047256,-5.1015361713697285,-7.023125196037205,50.58699819,0.99,1041.0
38.64871360537761,-1.4185762010125618,-5.104667690662888,-7.020490361387143,51.00604024,0.99,1051.0
38.6396567034855,-1.4146555561625649,-5.107878904891491,-7.017107096621557,50.77585154,0.99,1062.0
38.63019148133764,-1.4110128023859256,-5.110908883152483,-7.012941790543921,49.26618667,0.99,1072.0
38.62032594747677,-1.4077109436951472,-5.113521144813504,-7.007998210355165,50.63654578,0.99,1082.0
38.610067172858344,-1.4047869018210688,-5.1155264259969675,-7.002318029695992,54.43483962,0.99,1092.0
38.5994204348035,-1.40224837107705,-5.116801263815326,-6.995979638566732,50.16046182,0.99,1103.0
38.588389041858356,-1.4000731520313452,-5.117300834310248,-6.989095194766833,51.41154524,0.99,1113.0
38.57697484240735,-1.3982109886142997,-5.117064939507964,-6.981805924721693,51.03947545,0.99,1123.0
38.56517932991638,-1.3965877661887411,-5.116216603965781,-6.974275694660068,49.91714848,0.99,1133.0
38.55300518036171,-1.3951117425345811,-5.114953403914575,-6.9666828781574575,50.07125572,0.99,1143.0
38.54045799007816,-1.3936812844883355,-5.113532341564449,-6.95921058637773,53.35723909,0.99,1154.0
38.52754792870027,-1.3921934112182814,-5.112249660609577,-6.952035446980427,50.8860194,0.99,1164.0
38.514290995512354,-1.390552348255997,-5.111417349693023,-6.9453153453132845,49.28534286,0.99,1174.0
38.500709586486224,-1.388677298000824,-5.111338154634935,-6.939176863620968,49.55775119,0.99,1184.0
38.48683215470385,-1.3865087280908874,-5.1122807813887245,-6.933703494187975,49.22005244,0.99,1195.0
38.47269187258064,-1.3840126463342666,-5.11445676178142,-6.928925941972562,49.73780714,0.99,1205.0
38.4583243572799,-1.3811825366559427,-5.118000327015547,-6.924815869811293,49.81690843,0.99,1215.0
38.443764672018716,-1.3780388427497363,-5.122952665586129,-6.921284237617267,48.93630936,0.99,1225.0
38.42904394233675,-1.3746260904834957,-5.1292520648346835,-6.918184974776688,50.4831375,0.99,1235.0
38.41418601329843,-1.3710079400524051,-5.1367314617100375,-6.9153241713485025,48.48560936,0.99,1246.0
38.39920461068585,-1.367260656157901,-5.145124656836357,-6.912474365060677,50.51888706,0.99,1256.0
38.38410144650744,-1.3634656637801974,-5.1540817655981135,-6.909392917863706,54.6304753,0.99,1266.0
38.3688656204706,-1.3597019873688403,-5.163193424008855,-6.905842970043969,50.24243728,0.99,1276.0
38.35347452014613,-1.3560394158997162,-5.1720220129359715,-6.901615057176569,48.91275417,0.99,1286.0
38.337896233498135,-1.3525331665225362,-5.180136981487077,-6.8965472080448444,50.71328876,0.99,1297.0
38.3220932857235,-1.3492206289572692,-5.187150518075435,-6.890541281074286,49.31566774,0.99,1307.0
38.30602732381865,-1.3461204842638923,-5.192749549383152,-6.883573537945247,50.21535318,0.99,1317.0
38.28966422037474,-1.3432341523750788,-5.196720440601464,-6.8756980489502775,49.37009767,0.99,1327.0
38.272978978232864,-1.3405491917547647,-5.198963773307441,-6.867042417302053,50.60302836,0.99,1338.0
38.25595981485946,-1.3380440086844705,-5.1994979868024185,-6.857796324691949,49.66878571,0.99,1348.0
38.238610901170865,-1.3356930782044147,-5.1984521804285055,-6.848194319707033,49.20099186,1.0,1358.0
38.220953410507406,-1.3334718616093784,-5.196049677170143,-6.838494920692169,49.8963185,1.008781219,1368.0
38.20302476392008,-1.3313607322311949,-5.192584820829207,-6.828958398650983,53.36255449,0.99,1378.0
38.18487619502327,-1.3293474680855628,-5.188395844953616,-6.819825540802878,49.57778276,0.99,1389.0
38.16656896419472,-1.32742817963906,-5.183836582615196,-6.811299335710827,51.7381747,0.99,1399.0
38.148169700398135,-1.32560683400519,-5.179249447174283,-6.8035309761872265,50.23693526,0.99,1409.0
38.129745421829384,-1.3238937395427608,-5.174941680527168,-6.796610968920933,50.81564386,0.99,1419.0
38.11135877865931,-1.3223034307895605,-5.171166439603642,-6.790565570837782,49.67538825,0.99,1430.0
38.09306398142401,-1.320852360453476,-5.168109869571965,-6.785358297052762,54.13612367,0.99,1440.0
38.07490374737049,-1.3195567202002003,-5.1658848284383305,-6.78089586858259,50.70517356,0.99,1450.0
38.05690743953405,-1.318430630107439,-5.164531350311503,-6.777037669328061,47.87015,0.99,1460.0
38.03909041625786,-1.3174848729783308,-5.164023311198826,-6.773607563081369,48.72522931,0.99,1470.0
38.0214544789612,-1.316726284592634,-5.1642801785322545,-6.7704068284619146,49.48164855,0.99,1481.0
38.0039892237344,-1.3161578263716212,-5.165182249825612,-6.767227055429715,49.42279310000001,0.99,1491.0
37.98667407248157,-1.3157792679880738,-5.1665874629579145,-6.763862107042126,48.52806322,0.99,1501.0
37.96948076826122,-1.3155883134664028,-5.168347752231454,-6.760118600618233,48.59649023,0.99,1511.0
37.95237614501337,-1.3155819313903088,-5.17032310225666,-6.75582468475539,47.70515086,1.0,1522.0
37.93532500561632,-1.3157576038593628,-5.172391939351853,-6.750837100045183,48.47564286,1.0,1532.0
37.91829295392672,-1.3161141896070925,-5.174457221436425,-6.745046603664102,49.58165714,1.0,1542.0
37.90124902315684,-1.3166521073497093,-5.1764483751966734,-6.738381859489027,52.80569185,0.99,1552.0
37.88416793100095,-1.3173725996453942,-5.178319891203884,-6.730811895879564,49.95327314,1.0,1562.0
37.86703178878785,-1.3182759575847698,-5.180047781444523,-6.722347218380448,51.348726,1.0,1573.0
37.84983111793334,-1.3193587870751062,-5.181625180850215,-6.713039601202659,49.69009718,1.0,1583.0
37.83256508987338,-1.3206106568589886,-5.183058186452219,-6.7029804513379645,50.29440318,1.0,1593.0
37.81524099334897,-1.322010714284194,-5.184362697642387,-6.692297483760807,49.02118835,1.0,1603.0
37.79787302167518,-1.3235249926637362,-5.185562674630644,-6.681149353619577,51.1636,1.0,1614.0
37.7804805413971,-1.3251051042007964,-5.186689924502424,-6.669717947746087,49.61569773,1.0,1624.0
37.763086041404826,-1.3266888200132174,-5.187785229219244,-6.6581982885728594,49.01210169,1.0,1634.0
37.74571296659935,-1.3282027336201123,-5.1889003127518585,-6.6467864349366135,48.33119692,1.0,1644.0
37.72838361925556,-1.329566846268866,-5.190099843744998,-6.6356662918054905,49.30646667,1.0,1654.0
37.71111727798691,-1.330700560887905,-5.191462498208535,-6.624996715181243,48.31059831,1.0,1665.0
37.693928653289646,-1.3315292942491836,-5.1930801632502135,-6.6149005488620505,49.37960482,1.0,1675.0
37.67682677610555,-1.3319907878571222,-5.195054651126027,-6.60545713415799,49.79666124,1.0,1685.0
37.659814396040346,-1.3320402633487574,-5.19749172867229,-6.596699372176317,49.84890337,1.0,1695.0
37.64288793897228,-1.3316538089603096,-5.200492754215122,-6.5886156861141965,48.1001059,1.0,1706.0
37.62603803506385,-1.3308297173860302,-5.204144687890211,-6.581156406272307,49.50487318,1.0,1716.0
37.609250579264064,-1.3295878219674806,-5.208509645300054,-6.574243381838747,52.76241369,1.0,1726.0
37.59250823115053,-1.3279671302943674,-5.213615415343114,-6.567781167035037,49.40386676,1.0,1736.0
37.57579220547841,-1.3260222116163525,-5.219448369569428,-6.561668013913332,53.60721629,1.0,1747.0
37.559084160804936,-1.3238188610834127,-5.225949918476575,-6.55580512739584,49.68668111,1.0,1757.0
37.54236797634781,-1.3214295455728728,-5.233017184458667,-6.550103126718748,48.11972382,1.0,1767.0
37.525631225791294,-1.3189290448160569,-5.240507987856239,-6.544485285404956,48.15968156,1.0,1777.0
37.50886620640356,-1.3163905723479434,-5.248249691245042,-6.53888773850412,49.12167611,1.0,1787.0
37.49207044785421,-1.3138825444427809,-5.256050976373693,-6.533257313807372,48.63636704,1.0,1798.0
37.47524669209592,-1.3114660980852433,-5.2637152704500085,-6.527547883710942,49.31918667,1.0,1808.0
37.45840239237381,-1.309193438724777,-5.2710543294548895,-6.5217161542070405,50.94469778,1.0,1818.0
37.44154881861873,-1.307107088387367,-5.2779004679176005,-6.515717686292454,49.82114667,1.0,1828.0
37.42469987589964,-1.3052400605703842,-5.2841161281810125,-6.509503778357588,49.949875,1.0,1839.0
37.40787074765461,-1.303616887270503,-5.289599897673715,-6.503019689873844,49.49385556,1.0,1849.0
37.39107647697438,-1.3022552772402016,-5.294288640418764,-6.496204576112572,52.7582322,1.0,1859.0
37.374330604832075,-1.301168034763006,-5.29815599732513,-6.488993410879555,49.26531899,1.0,1869.0
37.35764399103554,-1.3003647722324116,-5.301208009078477,-6.481321052842766,54.08762049999999,1.0,1880.0
37.34102394147629,-1.299852962150753,-5.303476921173768,-6.4731284118950425,49.26199973,1.0,1890.0
37.3244737451272,-1.2996380203854518,-5.305014284014839,-6.4643703742630505,47.5803811,1.0,1900.0
37.3079926839557,-1.2997223651523977,-5.30588428901041,-6.455024775744223,47.98687376,1.0,1910.0
37.29157652117249,-1.3001036772119017,-5.306157992158159,-6.445101347014058,49.02873077,1.0,1920.0
37.275218404254375,-1.3007728029577303,-5.3059087871849195,-6.43464930210142,48.61385549,1.0,1931.0
37.258910051319106,-1.3017118288247391,-5.305209255494524,-6.4237622107577375,48.92938729,1.0,1941.0
37.24264304144487,-1.3028928003262423,-5.3041293277598935,-6.412579050378518,49.29680027,1.0,1951.0
37.22641001825321,-1.304277396993316,-5.3027355184618745,-6.401280845098269,49.54683913,1.0,1961.0
37.21020564498687,-1.3058176654630884,-5.301090856374963,-6.390082942693485,48.6290978,1.0,1972.0
37.19402720574734,-1.307457718408779,-5.299255084446598,-6.379223577523866,49.48187772,1.0,1982.0
37.17787481140356,-1.3091361724019261,-5.297284782852173,-6.368949773976534,53.02983098,1.0,1992.0
37.161751223593704,-1.3107890410487781,-5.295233262846409,-6.359501809722151,49.04762984,1.0,2002.0
37.14566134845728,-1.312352809136047,-5.2931503110321225,-6.35109743475062,52.64839865,1.0,2013.0
37.129611472620994,-1.313767458600437,-5.291082036894077,-6.343916937092532,49.46470761,1.0,2023.0
37.11360832161557,-1.3149792677969177,-5.28907111785795,-6.3380900475733375,48.94342995,1.0,2033.0
37.09765802308631,-1.3159432492110474,-5.287157624610998,-6.333685601499294,47.96303478,1.0,2043.0
