temp,CCO,HbO2,HHb,P_a,SaO2sup,t
38.390173131115354,-1.4164731075888235,-3.643312034108855,0.9326185536323556,47.8078421875,1.0,0.0
38.391003492827146,-1.401341178827996,-3.5642011790616768,0.9074520291873192,48.1702291187739,1.0,10.0
38.39181470914317,-1.3861912757158554,-3.4864487892975924,0.8825639186987406,45.35079296875,1.0,20.0
38.392592169691966,-1.3713912681642202,-3.412303483118216,0.8585799447182021,48.6269636363636,1.0,30.0
38.393323708129,-1.3573451667306144,-3.3439277802947562,0.8361254593639498,51.442890551181094,1.0,41.0
38.394000664159925,-1.3444903665521342,-3.2833274070127643,0.8158078602232572,47.9531417322835,1.0,51.0
38.39461859960932,-1.3332864773588886,-3.2322813617264883,0.7981948162780077,48.87369296875,1.0,61.0
38.39517760605393,-1.3241954074142486,-3.192274319639524,0.7837890594426891,52.0933571428572,1.0,71.0
38.395682195628986,-1.3176538544128509,-3.1644336596153737,0.773001321717316,48.6549102362205,1.0,81.0
38.39614081631151,-1.314040632003213,-3.1494738020063786,0.7661233948113009,48.4813948412698,1.0,91.0
38.39656507092138,-1.3136421428172125,-3.1476507140459744,0.7633033147348077,46.150925,1.0,102.0
38.39696874096769,-1.3166197168203306,-3.1587295402605085,0.7645245419680544,50.087727777777786,1.0,112.0
38.397366721296045,-1.32298248608518,-3.1819684328670603,0.7695909296637216,53.3814790322581,1.0,122.0
38.39777396197803,-1.3325690379577806,-3.2161216974860487,0.7781192975979463,46.8115352,1.0,132.0
38.398204495931566,-1.3450403550105383,-3.2594651296209123,0.7895414090300529,50.7877616,1.0,142.0
38.39867061080872,-1.359885580445482,-3.3098457215200634,0.8031168638864028,51.8711540322581,1.0,152.0
38.39918220557236,-1.3764410286834583,-3.3647567112546426,0.817957777268825,50.3301698412698,1.0,163.0
38.39974635626887,-1.3939217098037162,-3.4214373050828777,0.8330651993232328,48.315419047619,1.0,173.0
38.40036710034285,-1.4114635719352338,-3.4769944995467044,0.8473762356966877,47.9540216,1.0,183.0
38.40104543332753,-1.4281737738660092,-3.528542454357759,0.8598198841195361,50.019904,1.0,193.0
38.4017794961847,-1.4431856294189158,-3.5733530000839036,0.8693787581267185,48.084672,1.0,203.0
38.40256491751293,-1.4557144436880434,-3.6090092696533453,0.8751531381512472,48.3668888888889,1.0,213.0
38.403395264497036,-1.4651103105619985,-3.633553264227029,0.8764232154532876,49.1012496062992,1.0,224.0
38.40426255194436,-1.4709040698816418,-3.645617510492654,0.8727050407077809,54.78597439999999,1.0,234.0
38.405157761154335,-1.4728430128469865,-3.644530912682932,0.8637956146173748,47.5231685483871,1.0,244.0
38.406071329008796,-1.4709135322086804,-3.6303895154872965,0.8498028122454339,49.1753188,1.0,254.0
38.40699358013856,-1.4653486912682847,-3.6040842431258087,0.8311564674734936,54.598096,1.0,264.0
38.40791508821419,-1.4566195990266761,-3.5672798137995647,0.8085979944233481,46.6439152,1.0,274.0
38.408826963803406,-1.4454105082923088,-3.522341941300683,0.7831473746239593,49.40701532258061,1.0,285.0
38.40972107460785,-1.4325786787456267,-3.4722135434098886,0.7560481193307108,44.852304,1.0,295.0
38.41059020925217,-1.4191012269608252,-3.420244799675842,0.7286928044025761,48.4710158730159,1.0,305.0
38.41142819865973,-1.4060123392692176,-3.369986236197413,0.7025337958458606,49.676612195122004,1.0,315.0
38.412230009459186,-1.3943352214609623,-3.32495812077041,0.6789855928853699,45.0425388,1.0,325.0
38.412991821214106,-1.385013842344989,-3.288412777947045,0.6593265145895076,49.6818648,1.0,335.0
38.41371109325975,-1.3788497537166706,-3.2631084180780823,0.6446079712367305,48.865268,1.0,346.0
38.41438661871712,-1.3764489601037884,-3.2511132835037766,0.6355791414037271,49.450535080645196,1.0,356.0
38.415018555179024,-1.3781829787464344,-3.2536571520597635,0.632633549336821,49.3714463414634,1.0,366.0
38.41560841599086,-1.3841669665094216,-3.2710435609435584,0.6357819943144485,50.9938487903226,1.0,376.0
38.41615900457026,-1.3942562465206458,-3.3026307888108013,0.6446538038022973,49.7828209677419,1.0,386.0
38.416674277569044,-1.4080609187111606,-3.3468831168598405,0.6585257697628494,49.8393300395257,1.0,396.0
38.41715913070236,-1.4249766531933128,-3.401486872465212,0.6763756754284984,47.6083677419355,1.0,407.0
38.41761911240856,-1.4442283923318138,-3.4635191833267625,0.6969552740939386,50.0975248,1.0,417.0
38.418060082709545,-1.4649226712248091,-3.5296522925353897,0.7188761092733716,56.0516869918699,1.0,427.0
38.41848784474345,-1.4861037577119218,-3.596373603866976,0.7407007707441954,46.5278959839357,1.0,437.0
38.41890778179825,-1.5068089279476116,-3.6602018020921983,0.7610321482763029,48.79764960000001,1.0,447.0
38.419324531918534,-1.5261189348649842,-3.7178822865351897,0.7785940269497378,53.2894159836066,1.0,457.0
38.41974172596858,-1.5432009395292734,-3.7665500471775792,0.7922978961653155,48.195641666666695,1.0,468.0
38.42016180596747,-1.5573425840492563,-3.8038538835591966,0.8012928553936002,48.64327619047621,1.0,478.0
38.42058593155315,-1.5679771856354698,-3.828041300513786,0.8049975751764401,44.716672,1.0,488.0
38.42101397539026,-1.5747009794662965,-3.8380075197024857,0.80311499323154,47.8188216,1.0,498.0
38.42144460330633,-1.577283797459354,-3.833314290764609,0.7956315444349559,49.036684,1.0,508.0
38.42187543089182,-1.5756745294353884,-3.814184553453536,0.7828032285854238,47.962764516129,1.0,519.0
38.42230324407278,-1.5700022710387669,-3.7814778779459832,0.7651308708243487,47.86551400000001,1.0,529.0
38.422724266432795,-1.5605733909450945,-3.736649614074972,0.7433267456916298,51.049919354838714,1.0,539.0
38.42313445183228,-1.5478640500346217,-3.681694511377768,0.7182745193614652,46.992336,1.0,549.0
38.42352977896664,-1.5325071708488915,-3.619073871358464,0.6909843493888117,47.6464912698413,1.0,559.0
38.42390652626102,-1.515272638160209,-3.5516245204562016,0.6625449855798152,51.1864504,1.0,569.0
38.42426151083294,-1.4970396909297619,-3.4824482597134,0.6340747435353042,48.4674403225807,1.0,580.0
38.424592282746616,-1.478761037918224,-3.4147819314181405,0.6066731471955742,52.843169105691096,1.0,590.0
38.424897273329115,-1.4614191138483157,-3.351850623006745,0.5813748054991531,45.05220960000001,1.0,600.0
38.42517590174272,-1.4459759573263065,-3.2967094018794727,0.5591067567333703,49.023685483871,1.0,610.0
38.42542864571662,-1.4333192739164302,-3.2520817742313763,0.5406501957213234,51.1505634146342,1.0,620.0
38.42565708006693,-1.4242081788295986,-3.2202051547737187,0.5266072953041664,46.32356209677422,1.0,630.0
38.42586388173925,-1.4192227379380575,-3.2026945267989526,0.5173738070328098,49.83506,1.0,641.0
38.42605279504213,-1.4187216210944469,-3.200434981949852,0.5131183010427864,48.078316129032295,1.0,651.0
38.426228547983726,-1.4228118760361668,-3.213512105146588,0.5137692447290362,50.02819032258061,1.0,661.0
38.426396711707966,-1.4313340163131945,-3.241186559273672,0.5190114831391107,51.3621677419355,1.0,671.0
38.426563499953325,-1.443864363628516,-3.281916119174675,0.5282938405355165,48.535335772357705,1.0,681.0
38.42673551272909,-1.4597350514351073,-3.333425155539996,0.5408492954650219,50.509696341463396,1.0,691.0
38.426919435739755,-1.4780705045999416,-3.392818451497947,0.5557284081328007,53.905732258064496,1.0,702.0
38.42712171253749,-1.4978377905166835,-3.4567334382443367,0.5718454935995535,49.167304838709704,1.0,712.0
38.42734820910234,-1.517907171703118,-3.5215225711075484,0.5880356544891042,49.0847788617886,1.0,722.0
38.42760389085497,-1.5371185777948642,-3.5834556953486385,0.6031194597224763,54.8388217741935,1.0,732.0
38.42789253102026,-1.5543495686203512,-3.638930932311301,0.6159710005395865,48.028737903225796,1.0,742.0
38.42821646785564,-1.5685806174518488,-3.6846819327600415,0.6255844477458644,48.9861416,1.0,752.0
38.4285764269413,-1.5789540862384621,-3.7179693652576615,0.6311341858352547,45.2913112903226,1.0,763.0
38.42897142288317,-1.5848239426053958,-3.736745238865125,0.6320241081117918,48.566266,1.0,773.0
38.42939875128266,-1.5857939337825635,-3.7397800256900746,0.6279225876118779,49.896616129032296,1.0,783.0
38.42985407616225,-1.5817424892295742,-3.726744425210868,0.6187807959922487,44.7150709677419,1.0,793.0
38.43033161086092,-1.5728330738224543,-3.698239879308917,0.6048332881997545,47.95654879999999,1.0,803.0
38.43082438309488,-1.5595091546479698,-3.655774535397348,0.5865810663848849,49.173168548387096,1.0,813.0
38.43132456863164,-1.5424735014386153,-3.6016842553610897,0.5647586669903026,47.7321976095617,1.0,824.0
38.431823873459344,-1.522652284166089,-3.539001481922712,0.540288085853474,48.6914625,1.0,834.0
38.43231394165824,-1.5011453420984868,-3.471278228210529,0.5142233739970373,47.4069112903226,1.0,844.0
38.43278676558502,-1.4791649827935116,-3.402372944081743,0.4876902809025127,48.5344624,1.0,854.0
38.433235076669284,-1.4579665990453623,-3.3362142088826667,0.46182525500093,49.1515983870968,1.0,864.0
38.43365269895524,-1.4387751483146114,-3.2765567251717296,0.4377174688757811,47.970439430894295,1.0,875.0
38.43403485270893,-1.4227120406384952,-3.226746575851705,0.4163565411215937,49.571349590164004,1.0,885.0
38.4343784007201,-1.410727180204559,-3.1895128691798966,0.3985875926592854,53.76106991869921,1.0,895.0
38.43468203430234,-1.4035407766134729,-3.1668015798895186,0.38507447054312416,48.4147150406504,1.0,905.0
38.43494639891895,-1.4015990814145012,-3.1596646201705134,0.3762715376373475,50.086300406504094,1.0,915.0
38.43517416057113,-1.4050474427391946,-3.1682131269752114,0.372404379998919,54.7731458333333,1.0,925.0
38.43537001318839,-1.4137230469485595,-3.191638947532373,0.3734600343537174,50.8102770491803,1.0,936.0
38.43554062404226,-1.4271684462596852,-3.2283027428568922,0.3791876734428283,50.8938434426229,1.0,946.0
38.43569450945557,-1.4446654512499189,-3.2758814430968166,0.3891108131739516,48.0002227272727,1.0,956.0
38.43584182894989,-1.4652872458116497,-3.3315624195049565,0.40255178278671705,50.822386065573795,1.0,966.0
38.435994085075905,-1.4879648256540492,-3.392267169232397,0.4186683720266646,50.1139344262295,1.0,976.0
38.4361637199508,-1.5115623350824419,-3.4548841264825882,0.4365013739768847,49.9872,1.0,987.0
38.43636360740092,-1.5349548590490618,-3.5164890600568937,0.4550304229539068,51.0032065573771,1.0,997.0
38.43660644980011,-1.5571019214621542,-3.5745328801497687,0.473234353667549,52.0316847107438,1.0,1007.0
38.43690409978381,-1.5771104246246526,-3.626980611603969,0.4901515242418143,48.5487803278689,1.0,1017.0
38.43726683853287,-1.5942819887301816,-3.6723912795636737,0.5049353320875091,49.853073170731705,1.0,1027.0
38.43770265394975,-1.6081414623201973,-3.709935516443884,0.5169005941178805,51.6408475409836,1.0,1037.0
38.43821657276751,-1.6184455423432231,-3.7393546987108968,0.5255575193827082,47.6794718875502,1.0,1048.0
38.43881010857545,-1.6251726682643182,-3.7608713913396414,0.5306314799277474,51.1080590909091,1.0,1058.0
38.43948089054553,-1.6284973110748249,-3.775065205520205,0.5320683742519083,44.854968145161294,1.0,1068.0
38.440222532834326,-1.6287531802640076,-3.7827306042545614,0.5300267546193002,47.687817741935504,1.0,1078.0
38.44102479042317,-1.6263905522589617,-3.784733724928428,0.5248588406880809,50.227293388429786,1.0,1088.0
38.44187402333387,-1.6219328589269912,-3.7818841076017216,0.5170830173897439,44.2659846774194,1.0,1098.0
38.442753959592594,-1.615936957107271,-3.774834609491237,0.5073504863241071,48.00515483870971,1.0,1109.0
38.44364671201957,-1.6089602942442072,-3.7640190691132895,0.4964085078582363,44.77874146341461,1.0,1119.0
38.4445339706522,-1.6015366978704966,-3.749632767149816,0.4850622174412792,47.4882792682927,1.0,1129.0
38.44539826729049,-1.5941609783099118,-3.731655747523968,0.4741364235917658,48.87372983870971,1.0,1139.0
38.446224195100854,-1.5872811691575088,-3.7099140296410114,0.4644382510658743,44.5816,1.0,1149.0
38.44699946528783,-1.581296214904913,-3.6841691744509486,0.4567211362594253,48.367351612903214,1.0,1160.0
38.44771569392132,-1.576556347295836,-3.654223100437172,0.45165057730224395,51.321474596774216,1.0,1170.0
38.448368834600345,-1.5733633007869887,-3.620022931095877,0.4497721589184256,47.020008064516105,1.0,1180.0
38.44895920588941,-1.5719678946203532,-3.5817502636095684,0.4514826661197573,46.8374276422764,1.0,1190.0
38.4494911034719,-1.5725633141569573,-3.539880652540825,0.4570055404068498,52.56536,1.0,1200.0
38.44997203028948,-1.5752735578963917,-3.4952022376395737,0.4663724426090365,48.1854887096774,1.0,1211.0
38.45041161702794,-1.5801378116971307,-3.448787163748169,0.4794130985697188,49.648493902439,1.0,1221.0
38.45082033446765,-1.5870927707145108,-3.401915476022704,0.4957557021251638,44.9840862903226,1.0,1231.0
38.451208114943036,-1.5959559685933626,-3.355958017031558,0.5148397782879482,47.9874368,1.0,1241.0
38.45158300189525,-1.606413825344005,-3.3122316528924465,0.5359425283165735,48.9783901639344,1.0,1251.0
38.45194993670232,-1.618018226096703,-3.2718457504353573,0.5582183494767273,45.1669064516129,1.0,1261.0
38.452309774967645,-1.6301948632358687,-3.2355619677335667,0.5807496027507495,50.5487222222222,1.0,1272.0
38.4526586045989,-1.6422653044737912,-3.2036891721880068,0.6026050700173832,46.2383161290323,1.0,1282.0
38.452987418285545,-1.653482966432195,-3.176031442757523,0.6229012714439258,46.291787804878105,1.0,1292.0
38.45328217448619,-1.6630812140582336,-3.1519002616046405,0.640861235815424,48.5656292682927,1.0,1302.0
38.45352426307983,-1.6703300441082811,-3.130193357853212,0.655865563604602,47.61705121951221,1.0,1312.0
38.45369137245136,-1.674596518846447,-3.109533614695794,0.6674915768196179,47.873408064516106,1.0,1323.0
38.45375873178817,-1.6754034061846803,-3.0884532609844464,0.6755377277254899,51.8109,1.0,1333.0
38.45370067467184,-1.672480344927081,-3.0656022681590267,0.6800319337580062,45.6168456,1.0,1343.0
38.4534924385601,-1.6658022363602367,-3.0399561849271146,0.6812238926472107,47.17052943548389,1.0,1353.0
38.45311208246364,-1.6556104196516404,-3.0109979379615086,0.6795625946346394,52.321825,1.0,1363.0
38.45254237657307,-1.6424134762445537,-2.9788504260660966,0.675661160434871,45.92101935483871,1.0,1373.0
38.45177249817033,-1.62696616935767,-2.9443417390497686,0.6702518173303681,48.3416424,1.0,1384.0
38.45079936329328,-1.6102269655848054,-2.9089919809456237,0.6641343199564811,43.6035132,1.0,1394.0
38.44962843757288,-1.5932966566364741,-2.8749192138186537,0.6581214493996023,47.61615,1.0,1404.0
38.44827390376725,-1.577342579030094,-2.844671072518357,0.6529853636634546,47.87037460317461,1.0,1414.0
38.44675811494739,-1.5635145498308645,-2.8209971615899216,0.6494084580405072,44.6532862903226,1.0,1424.0
38.445110324772855,-1.5528596526550873,-2.806584448940829,0.6479419566434969,48.6602136,1.0,1435.0
38.44336475277322,-1.5462432698255335,-2.8037826283601683,0.6489746961333311,48.03966016260161,1.0,1445.0
38.441558107455,-1.5442832363064845,-2.814348185755915,0.6527135918259136,48.1228036290323,1.0,1455.0
38.439726749148434,-1.5473027673631101,-2.8392343834691887,0.6591762897636284,49.0585040322581,1.0,1465.0
38.437903723236545,-1.5553060305121666,-2.878449692956408,0.668195684416596,49.4832258064516,1.0,1475.0
38.43611592727861,-1.5679780728941877,-2.9309998700654067,0.679435384554639,48.4406349593496,1.0,1485.0
38.43438168720768,-1.5847084872009318,-2.9949197399516763,0.6924147757956969,51.41975,1.0,1496.0
38.432709004206025,-1.6046359619047486,-3.0673909888437336,0.7065419431540187,46.2825488,1.0,1506.0
38.43109469259628,-1.6267090212871989,-3.144933170021476,0.721152313936235,48.437416,1.0,1516.0
38.429524559778606,-1.6497571063076746,-3.2236480211401717,0.7355504981618387,52.711231707317104,1.0,1526.0
38.42797468507207,-1.6725658424366827,-3.2994930609189628,0.7490525755844231,44.7689333333333,1.0,1536.0
38.426413743193066,-1.6939508481264889,-3.368559705614004,0.7610261605520773,46.62329761904761,1.0,1547.0
38.42480620218549,-1.7128255305007474,-3.4273335029189917,0.7709260197853023,43.6251088709677,1.0,1557.0
38.423116119194866,-1.7282596639273384,-3.47291856920349,0.7783236948255882,46.789903174603204,1.0,1567.0
38.42131117424425,-1.7395268309367409,-3.5032136961996634,0.7829302385663244,46.7754896,1.0,1577.0
38.41936653300864,-1.7461397921574269,-3.5170327647593083,0.7846115941965023,43.08983920000001,1.0,1587.0
38.4172681214963,-1.7478734392085005,-3.5141663833335497,0.7833962619474482,45.8987352,1.0,1598.0
38.415014931426576,-1.7447751953181243,-3.495384846911648,0.7794748193426541,48.754644,1.0,1608.0
38.41262005358926,-1.7371626873104191,-3.462384744550265,0.7731907815763143,45.2769144,1.0,1618.0
38.41011025176218,-1.7256084079723923,-3.417683188392311,0.7650224111814737,46.447776,1.0,1628.0
38.40752403204056,-1.7109111262610672,-3.3644651021219514,0.7555555528690385,49.3545368,1.0,1638.0
38.40490831909268,-1.6940541491792254,-3.306390644724357,0.7454484126749182,46.2550027667984,1.0,1649.0
38.40231400733352,-1.6761512572068813,-3.2473718814248143,0.7353902965520148,48.1863875,1.0,1659.0
38.3997907946027,-1.6583821685209996,-3.1913302718590875,0.7260574046683349,43.629969841269904,1.0,1669.0
38.39738181021576,-1.6419205978940516,-3.141949180967306,0.7180695373163066,46.99313520000001,1.0,1679.0
38.3951186008816,-1.627859200794076,-3.1024379124288965,0.7119517917195773,48.2850634146341,1.0,1689.0
38.39301702525372,-1.6171367608973666,-3.075325030471253,0.7081049457111892,47.0094744,1.0,1700.0
38.39107452846294,-1.6104736875229062,-3.06229831583878,0.7067872710239499,47.693237301587295,1.0,1710.0
38.38926912981964,-1.6083219942194666,-3.064106180186382,0.7081090999965101,45.745275,1.0,1720.0
38.387560276583436,-1.610835203046462,-3.0805306992121984,0.7120397767502837,47.6198496,1.0,1730.0
38.38589151630824,-1.6178619660753004,-3.110435972888461,0.7184249713791911,47.495273015873,1.0,1740.0
38.384194743493815,-1.6289647509073548,-3.1518879924910665,0.7270111091044469,46.74134520000001,1.0,1751.0
38.38239560528157,-1.6434620661637205,-3.20233459760387,0.7374731636942831,47.998528,1.0,1761.0
38.38041952433241,-1.6604899076371669,-3.2588276219489782,0.7494423349857952,52.0036904,1.0,1771.0
38.378197728937465,-1.6790758880224848,-3.318265056880495,0.7625309537075471,46.305875,1.0,1781.0
38.375672679709396,-1.6982182486634567,-3.37762971558747,0.7763529841319985,47.2297527559055,1.0,1791.0
38.37280235117871,-1.7169618039540664,-3.4342025643808243,0.7905394273274476,50.1481571428572,1.0,1801.0
38.36956295923533,-1.7344637693020617,-3.4857331143079358,0.80474860902592,46.7713866141732,1.0,1812.0
38.365949906174045,-1.7500441262796618,-3.530555168943533,0.8186717590896169,47.4524904761905,1.0,1822.0
38.361976920170406,-1.7632173543094631,-3.5676428134960863,0.8320345562396021,42.583114173228296,1.0,1832.0
38.357673566469664,-1.77370466886578,-3.596607898902608,0.8445955487942962,45.6472267716535,1.0,1842.0
38.35308147547595,-1.7814280417053785,-3.6176457155213173,0.8561426132673423,45.93622360000001,1.0,1852.0
38.34824974761798,-1.7864889831575157,-3.6314396119906216,0.8664888041073611,44.6886897637795,1.0,1863.0
38.34323004734644,-1.7891361760782571,-3.639037801466841,0.8754689727329585,44.60379375,1.0,1873.0
38.338071892153344,-1.7897265207711746,-3.641716529215444,0.8829383527610519,44.691628346456696,1.0,1883.0
38.33281858890557,-1.788684040055356,-3.6408433100358417,0.8887739565802333,44.6279578125,1.0,1893.0
38.327504182805534,-1.7864605276615333,-3.637752309495828,0.8928791623689272,44.821661627907,1.0,1903.0
38.32215167343486,-1.7835009526415442,-3.633641403903917,0.8951913320278939,42.95897109375,1.0,1914.0
38.31677262089043,-1.7802156084247833,-3.629497302686199,0.8956917099497473,44.5260809338521,1.0,1924.0
38.31136811407745,-1.7769599464654429,-3.6260516759122963,0.8944162209754852,47.5253496062992,1.0,1934.0
38.30593090969863,-1.7740220693606457,-3.6237678506110855,0.8914651721526622,42.353048837209286,0.9999999999999909,1944.0
38.300448393531546,-1.7716170828569509,-3.6228546792698713,0.8870094456247866,44.33648046875,1.0,1954.0
38.29490589550926,-1.7698870161777356,-3.6233019502051067,0.8812908075838713,41.0201720930233,1.0,1965.0
